drain Time (s),drain Current (A)
0.0,6.510001565596109e-11
0.321667,4.6989356849991295e-11
0.465042,4.17572608435446e-11
0.608417,3.76730313611517e-11
0.751792,3.41599214193078e-11
0.895167,3.13641543292498e-11
1.038543,2.8762138504223597e-11
1.181918,2.6660156721147698e-11
1.325293,2.47717506229872e-11
1.468668,2.32369193331472e-11
1.612044,2.17850442546519e-11
1.755419,2.04381234159001e-11
1.898794,1.92947741117777e-11
2.04217,1.8291151579474797e-11
2.185545,1.7292464335461097e-11
2.328921,1.6394448298928698e-11
2.472297,1.5788221424673e-11
2.615672,1.5198719019449097e-11
2.759047,1.4547908884499098e-11
2.902422,1.3761771236464599e-11
3.045797,1.3103950216586399e-11
3.189172,1.25329850664269e-11
3.332547,1.2020433259873899e-11
3.475922,1.1608326279388699e-11
3.619297,1.11558323342975e-11
3.762672,1.0732388935896799e-11
3.906047,1.04293344793671e-11
4.049422,1.01308943872835e-11
4.192797,9.79584469096295e-12
4.336172,9.47300224374281e-12
4.479548,9.18229815100036e-12
4.622923,8.91522185936244e-12
4.766298,8.628642939045859e-12
4.909673,8.37862505070897e-12
5.053048,8.15550058042014e-12
5.196423,7.94585924834834e-12
5.339798,7.785249007963289e-12
5.483173,7.609713206790939e-12
5.626548,7.42757331334554e-12
5.769923,7.2766306868921e-12
5.913298,7.06205363285028e-12
6.056673,6.8437217698447096e-12
6.200049,6.639337517266859e-12
6.343424,6.4534905197533e-12
6.4868,6.293725957062789e-12
6.630176,6.15684976959519e-12
6.773551,6.01674309333444e-12
6.916926,5.90319633453351e-12
7.0603,5.77280541078085e-12
7.203675,5.62820449967472e-12
7.34705,5.4938198087994795e-12
7.490425,5.4167868107635195e-12
7.6338,5.32245645126772e-12
7.777175,5.22929442803299e-12
7.92055,5.118704071716e-12
8.063925,5.01377585282459e-12
8.207301,4.9029591150939696e-12
8.350676,4.81290831841341e-12
8.494051,4.71444151078915e-12
8.637426,4.628014551449899e-12
8.780801,4.58186873858457e-12
8.924176,4.49044707667712e-12
9.067551,4.38255074591831e-12
9.210926,4.31463718919556e-12
9.354301,4.22155843268768e-12
9.497676,4.15620792990068e-12
9.641052,4.0859936961679095e-12
9.784426,4.02209775901552e-12
9.927801,3.94196524380885e-12
10.071176,3.87426635911625e-12
10.214552,3.81604426877291e-12
10.357928,3.73730647124093e-12
10.501303,3.69504687264266e-12
10.644678,3.64768501862067e-12
10.788054,3.5823106633858796e-12
10.931429,3.5303713077916597e-12
11.074804,3.45619930244845e-12
11.218179,3.42090136599971e-12
11.361555,3.3613921108371897e-12
11.50493,3.30137024488752e-12
11.648305,3.2558680144317798e-12
11.79168,3.1973004972762897e-12
11.935055,3.15966610514584e-12
12.07843,3.14414510052541e-12
12.221805,3.09519770924638e-12
12.36518,3.04867025721633e-12
12.508555,3.05062529057376e-12
12.65193,3.00472971156984e-12
12.795305,2.9775858428199298e-12
12.93868,2.9330730552668e-12
13.082054,2.9129743322336996e-12
13.225429,2.88006077320269e-12
13.368804,2.84932862894272e-12
13.512179,2.8205992229357597e-12
13.655554,2.80678280097091e-12
13.798929,2.77808917363565e-12
13.942305,2.77966256782836e-12
14.08568,2.76267528818985e-12
14.229055,2.7231812724931597e-12
14.37243,2.65975002439189e-12
14.515805,2.6057482994251698e-12
14.659179,2.5649905376762297e-12
14.802554,2.54555946634094e-12
14.945929,2.51216885835404e-12
15.089304,2.48909009722964e-12
15.232679,2.4555683007798597e-12
15.376054,2.43505237675079e-12
15.519429,2.41274838649885e-12
15.662805,2.38031144274287e-12
15.806179,2.34687334670081e-12
15.949554,2.338302078006e-12
16.092929,2.30888138469387e-12
16.236305,2.28170152043183e-12
16.37968,2.2505521751758898e-12
16.523055,2.21322786486677e-12
16.66643,2.1962045897161397e-12
16.809805,2.1864890540485e-12
16.95318,2.17264899647629e-12
17.096556,2.1535039376741097e-12
17.239931,2.13880540882172e-12
17.383306,2.10878862115516e-12
17.526681,2.06677925641829e-12
17.670057,2.05116284200668e-12
17.813432,2.01389794597662e-12
17.956808,1.98855406967346e-12
18.100183,1.95193297289342e-12
18.243558,1.92459828456115e-12
18.386933,1.9194721766896397e-12
18.530309,1.91969877494369e-12
18.673685,1.89684639523291e-12
18.81706,1.86190602866065e-12
18.960435,1.85049783656133e-12
19.10381,1.8069625656869099e-12
19.247185,1.77731516570051e-12
19.39056,1.78233382913673e-12
19.533936,1.77748202441486e-12
19.677311,1.7429710019028999e-12
19.820686,1.7300248690219099e-12
19.964062,1.71922448066048e-12
20.107437,1.71649456801037e-12
20.250812,1.6972422816133298e-12
20.394187,1.68325900093413e-12
20.537562,1.67621374679711e-12
20.680937,1.67608266675445e-12
20.824312,1.68988705407519e-12
20.967687,1.6797423911876799e-12
21.111062,1.65395735302054e-12
21.254437,1.63617134164157e-12
21.397812,1.63174866413957e-12
21.541187,1.63432364429922e-12
21.684563,1.6257882626963299e-12
21.827938,1.61187653936051e-12
21.971313,1.58897645475414e-12
22.114689,1.5770673612511299e-12
22.258064,1.5623807586226398e-12
22.401439,1.56328682637819e-12
22.544814,1.56655309384301e-12
22.688189,1.51327854327338e-12
22.831564,1.49285792061526e-12
22.97494,1.4877557736117699e-12
23.118315,1.4742136547965499e-12
23.26169,1.46133897083872e-12
23.405065,1.4343858132509499e-12
23.548441,1.4387369334095699e-12
23.691816,1.4235496462178299e-12
23.835191,1.43800975901248e-12
23.978567,1.4335155241670899e-12
24.121942,1.42544504845576e-12
24.265317,1.3957381257700999e-12
24.408693,1.3981580650190799e-12
24.552068,1.38288740268028e-12
24.695443,1.37038232324305e-12
24.838818,1.38747693889663e-12
24.982193,1.3707756717912199e-12
25.125569,1.36864185349556e-12
25.268944,1.362395331099e-12
25.412319,1.3427495877335599e-12
25.555695,1.3404846893952399e-12
25.69907,1.3229966167732599e-12
25.842445,1.3160229199796199e-12
25.98582,1.3074159810333399e-12
26.129195,1.28890279525729e-12
26.27257,1.2705445419716699e-12
26.415945,1.2680053404837098e-12
26.559321,1.2699366298135599e-12
26.702696,1.26293897215191e-12
26.846071,1.25871893203594e-12
26.989446,1.2454510079501499e-12
27.132821,1.2381196328597999e-12
27.276197,1.21203665593567e-12
27.419572,1.20810273677302e-12
27.562947,1.2073040050325499e-12
27.706322,1.19432209347986e-12
27.849697,1.1841774305923499e-12
27.993072,1.16469865436147e-12
28.136447,1.1459112738559899e-12
28.279821,1.15190745397092e-12
28.423196,1.1339902541290799e-12
28.566571,1.12041235664218e-12
28.709946,1.11372467238163e-12
28.853321,1.1193156861447099e-12
28.996696,1.1180997534082599e-12
29.140071,1.11080404856939e-12
29.283446,1.0998606539414099e-12
29.426821,1.10553504285155e-12
29.570196,1.07976203932852e-12
29.713571,1.06691120781849e-12
29.856946,1.07320543511064e-12
30.000321,1.07080934830944e-12
30.143696,1.04901796884466e-12
30.287072,1.04622842507507e-12
30.430447,1.05515715522614e-12
30.573823,1.0394812181152599e-12
30.717198,1.03992227155902e-12
30.860574,1.0409474931333299e-12
31.00395,1.02533107872171e-12
31.147325,1.01426842185476e-12
31.2907,1.00337273212237e-12
31.434075,1.00846295290197e-12
31.57745,1.00113157781162e-12
31.720825,1.00121495295868e-12
31.8642,9.97710269436125e-13
32.007575,9.75668439269495e-13
32.15095,9.77802257565163e-13
32.294325,9.7385641217862e-13
32.4377,9.74893559976819e-13
32.581075,9.8720792825191e-13
32.72445,9.533167441219679e-13
32.867825,9.36222128468389e-13
33.0112,9.43672657377492e-13
33.154575,9.45544207167637e-13
33.297951,9.55319373954766e-13
33.441326,9.39905705349409e-13
33.584701,9.31966309680732e-13
33.728076,9.12427902330371e-13
33.871451,9.14680982865013e-13
34.014826,9.09888809262627e-13
34.158201,9.045004870956999e-13
34.301576,8.97109535095975e-13
34.444952,8.88288032539764e-13
34.588327,8.86487985882894e-13
34.731702,8.72051725536033e-13
34.875078,8.69369517781521e-13
35.018453,8.52727881795606e-13
35.161829,8.69977484149742e-13
35.305204,8.71598745868368e-13
35.44858,8.63170646070444e-13
35.591955,8.57925438590285e-13
35.735331,8.54516056438687e-13
35.878706,8.291244752399449e-13
36.022081,8.35633266142027e-13
36.165456,8.32176233304949e-13
36.30883,8.30948374344609e-13
36.452205,8.21053999528615e-13
36.59558,8.218526770589759e-13
36.738955,7.99393645896374e-13
36.882329,7.96699511917964e-13
37.025704,8.03840175846171e-13
37.169079,8.12900094460112e-13
37.312454,8.00979128943308e-13
37.455829,7.95054451961652e-13
37.599204,8.08274779572071e-13
37.742579,7.980227806694829e-13
37.885954,7.90643700683547e-13
38.029329,7.91823854748297e-13
38.172704,7.87985345376829e-13
38.31608,7.817268425462649e-13
38.459455,7.81428849579158e-13
38.60283,7.87436955917986e-13
38.746205,7.75194199196388e-13
38.88958,7.73882856668767e-13
39.032956,7.573962073834099e-13
39.176331,7.69317172900214e-13
39.319706,7.6735021331889e-13
39.463081,7.53593476683634e-13
39.606457,7.50851637809635e-13
39.749832,7.50851637809635e-13
39.893208,7.49278080986598e-13
40.036583,7.52484825752159e-13
40.179958,7.55810724336475e-13
40.323333,7.53557698011942e-13
40.466708,7.55763073650995e-13
40.610083,7.45832920163308e-13
40.753458,7.331132771161429e-13
40.896833,7.21049305332788e-13
41.040208,7.30073445275037e-13
41.183584,7.34913377983121e-13
41.326959,7.26819049823996e-13
41.470335,7.21347352510004e-13
41.61371,7.02905669867221e-13
41.757085,6.94537146978674e-13
41.90046,7.07364071830807e-13
42.043835,7.2221758738375e-13
42.18721,7.16197500610916e-13
42.330585,7.00867207152622e-13
42.473961,6.96980938675457e-13
42.617336,7.02750683166664e-13
42.760711,6.9772003929644e-13
42.904086,6.93476200942789e-13
43.047461,6.90197953043953e-13
43.190836,6.95717355253533e-13
43.334211,6.93690764552723e-13
43.477586,6.80494343600208e-13
43.620962,6.71577485462926e-13
43.764337,6.77442585535204e-13
43.907712,6.73675525086903e-13
44.051087,6.8081618901511e-13
44.194462,6.68346888249571e-13
44.337837,6.59322748307323e-13
44.481212,6.50501245751112e-13
44.624587,6.42585756740338e-13
44.767962,6.56306768914011e-13
44.911337,6.5815452046647e-13
45.054712,6.45315669390439e-13
45.198087,6.48367427455443e-13
45.341462,6.36661079758682e-13
45.484837,6.41799005433874e-13
45.628211,6.37674320898979e-13
45.771586,6.37447831065147e-13
45.914961,6.31129751325205e-13
46.058336,6.25395785505689e-13
46.201711,6.22546664826723e-13
46.345087,6.18183618444207e-13
46.488463,6.27803798530779e-13
46.631838,6.19232638256195e-13
46.775213,6.23464604596058e-13
46.918589,6.31237033130172e-13
47.061964,6.25801114487873e-13
47.205339,6.05917009274815e-13
47.348715,6.14881518097576e-13
47.49209,6.252527250290299e-13
47.635465,5.99026687628235e-13
47.778841,5.81622152783651e-13
47.922216,5.95307332075523e-13
48.065591,6.13760940942204e-13
48.208966,5.98454499931705e-13
48.352341,5.84149373837606e-13
48.495716,5.85150742964113e-13
48.639091,5.87832950718625e-13
48.782466,5.95855721534366e-13
48.925841,5.85281877216876e-13
49.069216,5.72788724003542e-13
49.212592,5.71072106703846e-13
49.355967,5.689263621842799e-13
49.499342,5.75816629620751e-13
49.642717,5.80179676003267e-13
49.786092,5.80263159570549e-13
49.929467,5.67543516523383e-13
50.072841,5.69295912494772e-13
50.216216,5.56588195671504e-13
50.359591,5.5948496703595e-13
50.502966,5.66124946400903e-13
50.646341,5.547880948045259e-13
50.789716,5.53190739743803e-13
50.933091,5.55062289533947e-13
51.076466,5.54370893808553e-13
51.219841,5.48017035396919e-13
51.363216,5.47409069028698e-13
51.506591,5.42974465302798e-13
51.649966,5.47385216580903e-13
51.793341,5.46240786977736e-13
51.936716,5.33270855859053e-13
52.080091,5.07187824724809e-13
52.223467,5.14125851266978e-13
52.366842,5.12897992306638e-13
52.510217,5.12993347887708e-13
52.653593,5.256533598153869e-13
52.796968,5.20193588725293e-13
52.940343,5.30648225013919e-13
53.083718,5.30409808956189e-13
53.227093,5.04398335165329e-13
53.370468,5.00011436335018e-13
53.513844,5.06639489476074e-13
53.657219,5.07581227483095e-13
53.800595,5.13589388032032e-13
53.94397,5.20277018082466e-13
54.087345,4.99904154530051e-13
54.23072,4.99653812248424e-13
54.374095,5.12278099714519e-13
54.51747,4.97210020551642e-13
54.660845,5.013227788626399e-13
54.804221,4.96768967107875e-13
54.947596,4.85575230198265e-13
55.090971,4.9296618219799e-13
55.234346,4.78291505793399e-13
55.377721,4.92715839916363e-13
55.521096,4.92250934024802e-13
55.664472,4.896521556274619e-13
55.807847,4.95767597981367e-13
55.951222,4.77218633533616e-13
56.094597,4.716277281907599e-13
56.237972,4.87637545360659e-13
56.381348,4.87875961418388e-13
56.524724,4.90272048219581e-13
56.668099,4.92811195497433e-13
56.811474,4.75549721129509e-13
56.954849,4.801869622414469e-13
57.098224,4.67169272017065e-13
57.241599,4.741310967969199e-13
57.384974,4.80914136638533e-13
57.528349,4.83453283916385e-13
57.671724,4.74071519887542e-13
57.815099,4.67610379670941e-13
57.958474,4.59945232941794e-13
58.10185,4.726290973172679e-13
58.245225,4.8125983450123e-13
58.3886,4.70685990183739e-13
58.531975,4.99117403223587e-13
58.675351,4.85706310240919e-13
58.818727,4.72903237836581e-13
58.962102,4.64797037663667e-13
59.105477,4.8036574717969e-13
59.248852,4.65190440421953e-13
59.392227,4.49120992132568e-13
59.535602,4.51946260363739e-13
59.678978,4.54723850804375e-13
59.822353,4.46879864926877e-13
59.965728,4.48060046096682e-13
60.109103,4.45795066443197e-13
60.252479,4.37593456479105e-13
60.395854,4.38022610804029e-13
60.53923,4.3789147655126597e-13
60.682605,4.34100644970334e-13
60.82598,4.4422150962015996e-13
60.969356,4.57990199584368e-13
61.112731,4.31597249259119e-13
61.256107,4.11045546558353e-13
61.399482,4.02331352912164e-13
61.542857,4.2817594088362397e-13
61.686232,4.13870814789524e-13
61.829608,4.36496731771527e-13
61.972983,4.28462034731888e-13
62.116358,4.2035580745391997e-13
62.259733,4.29689893692228e-13
62.403108,4.31466115006357e-13
62.546483,4.33146953634361e-13
62.689859,4.30440920537109e-13
62.833234,4.20796888002742e-13
62.976609,3.99160386818295e-13
63.119984,4.17733203713841e-13
63.263359,4.07671943078447e-13
63.406734,4.01937977258932e-13
63.55011,4.09030909186495e-13
63.693485,4.19211404955808e-13
63.83686,4.16052337980782e-13
63.980235,4.0652751347528e-13
64.12361,4.09138218096516e-13
64.266985,4.11474700883277e-13
64.410361,4.0628909741754997e-13
64.553736,4.0628909741754997e-13
64.697111,3.9248468299175897e-13
64.840487,3.88944166587399e-13
64.983863,4.02808185027623e-13
65.127238,4.04763218385049e-13
65.270614,4.39167040407196e-13
65.413989,4.95874879786334e-13
65.557364,5.29944903064627e-13
65.700739,5.46348122992812e-13
65.844114,5.47587853966941e-13
65.987489,5.46514981707158e-13
66.130864,5.72133052739732e-13
66.274239,5.66816342126297e-13
66.417614,5.76329240407902e-13
66.560989,5.60522060624041e-13
66.704365,5.30326379599017e-13
66.84774,5.12158891685655e-13
66.991115,5.05757328378431e-13
67.134491,4.931092426746499e-13
67.277866,5.01680402949234e-13
67.421241,4.96101369620167e-13
67.564617,4.85050693187217e-13
67.707992,4.89866719237397e-13
67.851367,4.84454653042893e-13
67.994742,5.0425527468867e-13
68.138117,4.8598050497034e-13
68.281492,4.80520733880246e-13
68.424867,4.88173954385496e-13
68.568242,4.752278215044979e-13
68.711617,4.7880411658055e-13
68.854992,4.62842004306241e-13
68.998367,4.49895871425243e-13
69.141742,4.52399267136458e-13
69.285117,4.31561470587427e-13
69.428492,4.35256973692344e-13
69.571867,4.38249127742915e-13
69.715242,4.4850112664550397e-13
69.858617,4.65369225360196e-13
70.001992,4.91893309938207e-13
70.145367,5.078554222125159e-13
70.288742,5.24890406746609e-13
70.432117,5.487680622418e-13
70.575492,5.52320504870057e-13
70.718867,5.55026565072364e-13
70.862242,5.60569765519631e-13
71.005617,5.58805497534454e-13
71.148992,5.52356229331641e-13
71.292367,5.21183031627903e-13
71.435742,5.02848630790087e-13
71.579116,4.94909289331519e-13
71.722491,4.95100054703768e-13
71.865866,4.80175036017549e-13
72.009242,4.76551036045908e-13
72.152617,4.71735009995727e-13
72.295992,4.60100165432242e-13
72.439367,4.46081160291462e-13
72.582743,4.3969155031319e-13
72.726119,4.3697359099204e-13
72.869494,4.51660166515475e-13
73.012869,4.59456474602438e-13
73.156244,4.54354300493884e-13
73.299619,4.50181965273508e-13
73.442994,4.46903717374672e-13
73.586369,4.39679624089293e-13
73.729744,4.31990624912351e-13
73.873119,4.34112544089177e-13
74.016494,4.43732751280804e-13
74.159869,4.26971907266024e-13
74.303244,4.34660906442966e-13
74.446619,4.46212294544224e-13
74.589994,4.98306745259219e-13
74.733369,5.27310400205705e-13
74.876745,5.2795409103551e-13
75.02012,5.12838361187151e-13
75.163495,5.11252878140217e-13
75.30687,4.984855844075709e-13
75.450246,5.04398335165329e-13
75.593621,5.14960307469031e-13
75.736996,5.04481818732611e-13
75.880371,4.65297722226921e-13
76.023746,4.5161248872494e-13
76.167122,4.49824341186914e-13
76.310497,4.40537932739141e-13
76.453873,4.30738940609271e-13
76.597248,4.35030456753457e-13
76.740623,4.25934786572879e-13
76.883998,4.23812867396053e-13
77.027373,4.34339061028063e-13
77.170748,4.21488283728136e-13
77.314124,4.11832324969871e-13
77.457499,4.15623183655858e-13
77.600874,4.26423544912236e-13
77.744249,4.31942947121816e-13
77.887624,4.1681529104956e-13
78.031,4.1450263360554e-13
78.174375,4.25660618948512e-13
78.31775,4.19962404695634e-13
78.461126,4.15849700594745e-13
78.604502,4.13942345027854e-13
78.747877,4.30881973980876e-13
78.891252,4.2529106863802e-13
79.034628,4.28855437490175e-13
79.178003,4.45592401952105e-13
79.321378,4.55379494963132e-13
79.464753,4.63902950342127e-13
79.608128,4.93371511180174e-13
79.751503,4.90593893634483e-13
79.894878,5.00929376104353e-13
80.038253,4.97210020551642e-13
80.181628,4.97949121172625e-13
80.325003,4.82559196594845e-13
80.468378,4.45485120147138e-13
80.611753,4.33397295915988e-13
80.755128,4.24444686212069e-13
80.898504,4.12237653952055e-13
81.041879,4.09984600522467e-13
81.185254,4.0397643997352996e-13
81.328628,4.0124655442848297e-13
81.472003,4.04918205085605e-13
81.615379,4.1195156010378996e-13
81.758755,4.16290754038512e-13
81.90213,4.06456010342005e-13
82.045505,3.90732287020371e-13
82.18888,4.0190219858724e-13
82.332255,3.9920806460883e-13
82.47563,3.90458119396003e-13
82.619005,3.93772118861477e-13
82.762381,4.05144694919438e-13
82.905756,4.07409674572923e-13
83.049131,4.09019010067652e-13
83.192506,4.08923627381527e-13
83.335881,4.20498840825526e-13
83.479257,4.08720962890435e-13
83.622632,4.1575431790862e-13
83.766007,4.50325025750167e-13
83.909382,4.49931622991881e-13
84.052758,4.54795381042705e-13
84.196133,4.66442097619979e-13
84.339508,4.66036822847904e-13
84.482884,4.76193411959314e-13
84.626259,4.67216976912654e-13
84.769634,4.63402265778873e-13
84.913009,4.5180319988708e-13
85.056384,4.30321712508244e-13
85.19976,4.16505344753501e-13
85.343135,4.20725357764412e-13
85.48651,4.14216512652221e-13
85.629885,3.99684923829344e-13
85.77326,4.00197507511441e-13
85.916634,4.08160701417803e-13
86.060009,3.96430501273248e-13
86.203385,3.88216965085258e-13
86.34676,3.91983998428505e-13
86.490135,3.90720360796473e-13
86.63351,3.74686718283834e-13
86.776885,3.7781000658716797e-13
86.92026,3.5824777389406597e-13
87.063635,3.52823727265555e-13
87.207011,3.67486477446249e-13
87.350386,3.55184089605165e-13
87.493761,3.5976172670266997e-13
87.637136,3.6045312242806397e-13
87.780511,3.49330915756785e-13
87.923886,3.3981801747518e-13
88.067262,3.45408922818036e-13
88.210637,3.5039186179267e-13
88.354012,3.72850892955273e-13
88.497387,4.0841104369942997e-13
88.640762,4.30583953908714e-13
88.784138,4.24849988089199e-13
88.927513,4.32276718760616e-13
89.070889,4.36043752103862e-13
89.214264,4.41455845403421e-13
89.357639,4.50873388103956e-13
89.501014,4.39095510168866e-13
89.644389,4.0956737242143997e-13
89.787764,3.9162637434191097e-13
89.931139,3.78680241460913e-13
90.074514,3.70836255583415e-13
90.217889,3.70192537648556e-13
90.361264,3.5512448559073297e-13
90.50464,3.63826753013025e-13
90.648015,3.64780444348997e-13
90.79139,3.68094443814471e-13
90.934765,3.69954121590826e-13
91.07814,3.80623348594442e-13
91.221515,3.80373006312815e-13
91.36489,3.6786795398063797e-13
91.508265,3.56602686832699e-13
91.65164,3.63957887265787e-13
91.795015,3.73768805619554e-13
91.93839,3.47387808623256e-13
92.081765,3.51202492651984e-13
92.22514,3.4855603646410897e-13
